t,alpha,omega
0,0,0
0.1,0.00217528,0.0431269
0.2,0.00855058,0.0840099
0.3,0.0189044,0.122707
0.4,0.0330209,0.159275
0.5,0.0506903,0.193771
0.6,0.0717081,0.226255
0.7,0.095876,0.256782
0.8,0.123001,0.285411
0.9,0.152897,0.312197
1,0.185381,0.337198
1.1,0.220279,0.360469
1.2,0.257419,0.382067
1.3,0.296638,0.402046
1.4,0.337776,0.420461
1.5,0.38068,0.437366
1.6,0.425201,0.452814
1.7,0.471196,0.466858
1.8,0.518527,0.479549
1.9,0.567062,0.490939
2,0.616673,0.501079
2.1,0.667238,0.510016
2.2,0.718638,0.517801
2.3,0.770761,0.52448
2.4,0.823499,0.530101
2.5,0.876748,0.53471
2.6,0.930409,0.538351
2.7,0.984387,0.541068
2.8,1.03859,0.542905
2.9,1.09294,0.543903
3,1.14735,0.544104
3.1,1.20174,0.543548
3.2,1.25603,0.542274
3.3,1.31017,0.54032
3.4,1.36408,0.537723
3.5,1.41769,0.534519
3.6,1.47096,0.530744
3.7,1.52382,0.526431
3.8,1.57623,0.521615
3.9,1.62813,0.516325
4,1.67948,0.510595
4.1,1.73024,0.504455
4.2,1.78036,0.497932
4.3,1.82981,0.491057
4.4,1.87856,0.483855
4.5,1.92657,0.476354
4.6,1.97382,0.468579
4.7,2.02028,0.460555
4.8,2.06592,0.452305
4.9,2.11073,0.443851
5,2.15469,0.435217
5.1,2.19777,0.426422
5.2,2.23997,0.417487
5.3,2.28126,0.408432
5.4,2.32165,0.399275
5.5,2.36112,0.390034
5.6,2.39966,0.380725
5.7,2.43726,0.371365
5.8,2.47393,0.361969
5.9,2.50965,0.352552
6,2.54444,0.343128
6.1,2.57828,0.333711
6.2,2.61118,0.324312
6.3,2.64314,0.314944
6.4,2.67417,0.305619
6.5,2.70427,0.296346
6.6,2.73344,0.287136
6.7,2.7617,0.277998
6.8,2.78904,0.268942
6.9,2.81549,0.259975
7,2.84104,0.251106
7.1,2.86571,0.24234
7.2,2.88951,0.233687
7.3,2.91246,0.22515
7.4,2.93455,0.216738
7.5,2.95581,0.208453
7.6,2.97624,0.200302
7.7,2.99587,0.192289
7.8,3.01471,0.184418
7.9,3.03276,0.176693
8,3.05005,0.169116
8.1,3.06659,0.161691
8.2,3.08239,0.15442
8.3,3.09748,0.147305
8.4,3.11186,0.140348
8.5,3.12555,0.133552
8.6,3.13857,0.126916
8.7,3.15094,0.120442
8.8,3.16267,0.11413
8.9,3.17377,0.107982
9,3.18427,0.101997
9.1,3.19418,0.0961746
9.2,3.20351,0.0905155
9.3,3.21229,0.0850187
9.4,3.22052,0.0796837
9.5,3.22823,0.0745095
9.6,3.23543,0.0694951
9.7,3.24213,0.0646394
9.8,3.24836,0.0599408
9.9,3.25413,0.055398
10,3.25944,0.0510092
10.1,3.26433,0.0467727
10.2,3.2688,0.0426866
10.3,3.27288,0.0387489
10.4,3.27656,0.0349575
10.5,3.27987,0.0313101
10.6,3.28283,0.0278045
10.7,3.28544,0.0244383
10.8,3.28772,0.021209
10.9,3.28968,0.0181143
11,3.29135,0.0151514
11.1,3.29272,0.0123178
11.2,3.29381,0.00961087
11.3,3.29464,0.00702784
11.4,3.29522,0.00456601
11.5,3.29556,0.00222262
11.6,3.29567,-5.12167e-06
11.7,3.29556,-0.00212
11.8,3.29525,-0.00412484
11.9,3.29474,-0.00602246
12,3.29405,-0.00781568
12.1,3.29318,-0.00950734
12.2,3.29215,-0.0111002
12.3,3.29097,-0.0125972
12.4,3.28964,-0.0140011
12.5,3.28817,-0.0153146
12.6,3.28658,-0.0165406
12.7,3.28486,-0.0176817
12.8,3.28304,-0.0187408
12.9,3.28112,-0.0197204
13,3.2791,-0.0206234
13.1,3.277,-0.0214523
13.2,3.27481,-0.0222098
13.3,3.27256,-0.0228984
13.4,3.27023,-0.0235207
13.5,3.26785,-0.0240792
13.6,3.26542,-0.0245764
13.7,3.26294,-0.0250146
13.8,3.26042,-0.0253962
13.9,3.25786,-0.0257237
14,3.25528,-0.0259993
14.1,3.25267,-0.0262252
14.2,3.25003,-0.0264036
14.3,3.24739,-0.0265368
14.4,3.24473,-0.0266268
14.5,3.24206,-0.0266756
14.6,3.23939,-0.0266854
14.7,3.23673,-0.0266581
14.8,3.23406,-0.0265955
14.9,3.23141,-0.0264996
15,3.22876,-0.0263721
15.1,3.22613,-0.0262149
15.2,3.22352,-0.0260297
15.3,3.22093,-0.0258181
15.4,3.21836,-0.0255818
15.5,3.21581,-0.0253224
15.6,3.2133,-0.0250413
15.7,3.21081,-0.0247401
15.8,3.20835,-0.0244202
15.9,3.20592,-0.0240829
16,3.20353,-0.0237297
16.1,3.20118,-0.0233618
16.2,3.19886,-0.0229804
16.3,3.19658,-0.0225868
16.4,3.19434,-0.0221822
16.5,3.19215,-0.0217676
16.6,3.18999,-0.0213441
16.7,3.18788,-0.0209127
16.8,3.18581,-0.0204745
16.9,3.18378,-0.0200304
17,3.1818,-0.0195813
17.1,3.17987,-0.019128
17.2,3.17798,-0.0186714
17.3,3.17613,-0.0182124
17.4,3.17433,-0.0177516
17.5,3.17258,-0.0172897
17.6,3.17088,-0.0168275
17.7,3.16922,-0.0163657
17.8,3.1676,-0.0159047
17.9,3.16604,-0.0154453
18,3.16451,-0.0149879
18.1,3.16304,-0.0145331
18.2,3.16161,-0.0140814
18.3,3.16022,-0.0136333
18.4,3.15888,-0.0131891
18.5,3.15758,-0.0127494
18.6,3.15633,-0.0123144
18.7,3.15512,-0.0118845
18.8,3.15395,-0.0114601
18.9,3.15283,-0.0110415
19,3.15174,-0.0106289
19.1,3.1507,-0.0102226
19.2,3.1497,-0.00982283
19.3,3.14874,-0.00942985
19.4,3.14781,-0.00904383
19.5,3.14693,-0.00866495
19.6,3.14608,-0.00829337
19.7,3.14527,-0.00792922
19.8,3.14449,-0.00757263
19.9,3.14375,-0.00722371
20,3.14305,-0.00688255
20.1,3.14238,-0.00654922
20.2,3.14174,-0.00622378
20.3,3.14113,-0.00590629
20.4,3.14056,-0.00559676
20.5,3.14001,-0.00529524
20.6,3.1395,-0.00500171
20.7,3.13901,-0.00471619
20.8,3.13855,-0.00443866
20.9,3.13812,-0.00416909
21,3.13772,-0.00390746
21.1,3.13734,-0.00365371
21.2,3.13699,-0.0034078
21.3,3.13666,-0.00316967
21.4,3.13636,-0.00293924
21.5,3.13607,-0.00271646
21.6,3.13581,-0.00250123
21.7,3.13557,-0.00229347
21.8,3.13535,-0.00209309
21.9,3.13515,-0.00189998
22,3.13497,-0.00171405
22.1,3.13481,-0.00153518
22.2,3.13467,-0.00136326
22.3,3.13454,-0.00119819
22.4,3.13443,-0.00103983
22.5,3.13433,-0.000888059
22.6,3.13425,-0.000742761
22.7,3.13418,-0.000603804
22.8,3.13413,-0.000471056
22.9,3.13409,-0.000344386
23,3.13406,-0.000223661
23.1,3.13404,-0.000108743
23.2,3.13404,5.02351e-07
23.3,3.13404,0.000104213
23.4,3.13406,0.000202527
23.5,3.13408,0.000295583
23.6,3.13412,0.000383519
23.7,3.13416,0.000466475
23.8,3.13421,0.000544587
23.9,3.13427,0.000617995
24,3.13433,0.000686836
24.1,3.1344,0.000751247
24.2,3.13448,0.000811363
24.3,3.13457,0.000867321
24.4,3.13466,0.000919253
24.5,3.13475,0.000967292
24.6,3.13485,0.00101157
24.7,3.13495,0.00105222
24.8,3.13506,0.00108936
24.9,3.13517,0.00112312
25,3.13528,0.00115364
25.1,3.1354,0.00118102
25.2,3.13552,0.00120539
25.3,3.13564,0.00122688
25.4,3.13577,0.00124559
25.5,3.13589,0.00126165
25.6,3.13602,0.00127515
25.7,3.13615,0.00128623
25.8,3.13627,0.00129498
25.9,3.1364,0.0013015
26,3.13653,0.00130591
26.1,3.13667,0.0013083
26.2,3.1368,0.00130878
26.3,3.13693,0.00130743
26.4,3.13706,0.00130436
26.5,3.13719,0.00129965
26.6,3.13732,0.0012934
26.7,3.13745,0.00128568
26.8,3.13757,0.0012766
26.9,3.1377,0.00126622
27,3.13783,0.00125463
27.1,3.13795,0.0012419
27.2,3.13808,0.00122811
27.3,3.1382,0.00121333
27.4,3.13832,0.00119764
27.5,3.13844,0.0011811
27.6,3.13856,0.00116377
27.7,3.13867,0.00114573
27.8,3.13878,0.00112702
27.9,3.1389,0.00110772
28,3.13901,0.00108787
28.1,3.13911,0.00106754
28.2,3.13922,0.00104676
28.3,3.13932,0.00102561
28.4,3.13942,0.00100412
28.5,3.13952,0.000982333
28.6,3.13962,0.000960305
28.7,3.13972,0.000938075
28.8,3.13981,0.000915683
28.9,3.1399,0.000893168
29,3.13999,0.000870567
29.1,3.14007,0.000847916
29.2,3.14016,0.000825248
29.3,3.14024,0.000802596
29.4,3.14032,0.000779989
29.5,3.14039,0.000757456
29.6,3.14047,0.000735025
29.7,3.14054,0.000712721
29.8,3.14061,0.000690568
29.9,3.14068,0.000668589
30,3.14074,0.000646806
30.1,3.14081,0.000625238
30.2,3.14087,0.000603905
30.3,3.14093,0.000582823
30.4,3.14099,0.000562008
30.5,3.14104,0.000541477
30.6,3.14109,0.000521242
30.7,3.14115,0.000501316
30.8,3.1412,0.000481712
30.9,3.14124,0.000462439
31,3.14129,0.000443508
31.1,3.14133,0.000424927
31.2,3.14137,0.000406703
31.3,3.14141,0.000388845
31.4,3.14145,0.000371357
31.5,3.14149,0.000354245
31.6,3.14152,0.000337514
31.7,3.14155,0.000321166
31.8,3.14159,0.000305206
31.9,3.14162,0.000289636
32,3.14164,0.000274456
32.1,3.14167,0.000259669
32.2,3.1417,0.000245274
32.3,3.14172,0.000231272
32.4,3.14174,0.000217661
32.5,3.14176,0.000204441
32.6,3.14178,0.00019161
32.7,3.1418,0.000179166
32.8,3.14182,0.000167106
32.9,3.14183,0.000155428
33,3.14185,0.000144128
33.1,3.14186,0.000133203
33.2,3.14188,0.000122648
33.3,3.14189,0.000112459
33.4,3.1419,0.000102632
33.5,3.14191,9.31621e-05
33.6,3.14192,8.40439e-05
33.7,3.14193,7.52721e-05
33.8,3.14193,6.68414e-05
33.9,3.14194,5.8746e-05
34,3.14194,5.098e-05
34.1,3.14195,4.35374e-05
34.2,3.14195,3.64121e-05
34.3,3.14196,2.95976e-05
34.4,3.14196,2.30878e-05
34.5,3.14196,1.6876e-05
34.6,3.14196,1.09557e-05
34.7,3.14196,5.32031e-06
34.8,3.14196,-3.69542e-08
34.9,3.14196,-5.12279e-06
35,3.14196,-9.94396e-06
35.1,3.14196,-1.45073e-05
35.2,3.14196,-1.88195e-05
35.3,3.14196,-2.28874e-05
35.4,3.14195,-2.67179e-05
35.5,3.14195,-3.03176e-05
35.6,3.14195,-3.36934e-05
35.7,3.14195,-3.68519e-05
35.8,3.14194,-3.97998e-05
35.9,3.14194,-4.25437e-05
36,3.14193,-4.50903e-05
36.1,3.14193,-4.74459e-05
36.2,3.14192,-4.9617e-05
36.3,3.14192,-5.16101e-05
36.4,3.14191,-5.34313e-05
36.5,3.14191,-5.5087e-05
36.6,3.1419,-5.65831e-05
36.7,3.1419,-5.79257e-05
36.8,3.14189,-5.91208e-05
36.9,3.14188,-6.01742e-05
37,3.14188,-6.10917e-05
37.1,3.14187,-6.18788e-05
37.2,3.14187,-6.2541e-05
37.3,3.14186,-6.30838e-05
37.4,3.14185,-6.35126e-05
37.5,3.14185,-6.38324e-05
37.6,3.14184,-6.40484e-05
37.7,3.14183,-6.41655e-05
37.8,3.14183,-6.41886e-05
37.9,3.14182,-6.41223e-05
38,3.14182,-6.39714e-05
38.1,3.14181,-6.37404e-05
38.2,3.1418,-6.34335e-05
38.3,3.1418,-6.3055e-05
38.4,3.14179,-6.26092e-05
38.5,3.14178,-6.21e-05
38.6,3.14178,-6.15313e-05
38.7,3.14177,-6.0907e-05
38.8,3.14177,-6.02306e-05
38.9,3.14176,-5.95059e-05
39,3.14175,-5.87361e-05
39.1,3.14175,-5.79247e-05
39.2,3.14174,-5.70749e-05
39.3,3.14174,-5.61897e-05
39.4,3.14173,-5.52723e-05
39.5,3.14172,-5.43254e-05
39.6,3.14172,-5.3352e-05
39.7,3.14171,-5.23546e-05
39.8,3.14171,-5.13358e-05
39.9,3.1417,-5.02982e-05
40,3.1417,-4.9244e-05
40.1,3.14169,-4.81757e-05
40.2,3.14169,-4.70953e-05
40.3,3.14168,-4.6005e-05
40.4,3.14168,-4.49068e-05
40.5,3.14168,-4.38025e-05
40.6,3.14167,-4.26941e-05
40.7,3.14167,-4.15832e-05
40.8,3.14166,-4.04714e-05
40.9,3.14166,-3.93604e-05
41,3.14166,-3.82517e-05
41.1,3.14165,-3.71466e-05
41.2,3.14165,-3.60465e-05
41.3,3.14164,-3.49526e-05
41.4,3.14164,-3.38662e-05
41.5,3.14164,-3.27882e-05
41.6,3.14163,-3.17199e-05
41.7,3.14163,-3.06622e-05
41.8,3.14163,-2.96159e-05
41.9,3.14163,-2.85819e-05
42,3.14162,-2.75611e-05
42.1,3.14162,-2.65542e-05
42.2,3.14162,-2.55618e-05
42.3,3.14161,-2.45846e-05
42.4,3.14161,-2.36232e-05
42.5,3.14161,-2.2678e-05
42.6,3.14161,-2.17495e-05
42.7,3.14161,-2.08383e-05
42.8,3.1416,-1.99446e-05
42.9,3.1416,-1.90687e-05
43,3.1416,-1.82111e-05
43.1,3.1416,-1.73719e-05
43.2,3.1416,-1.65513e-05
43.3,3.14159,-1.57496e-05
43.4,3.14159,-1.49669e-05
43.5,3.14159,-1.42033e-05
43.6,3.14159,-1.34589e-05
43.7,3.14159,-1.27337e-05
43.8,3.14159,-1.20278e-05
43.9,3.14159,-1.13411e-05
44,3.14159,-1.06736e-05
44.1,3.14158,-1.00252e-05
44.2,3.14158,-9.396e-06
44.3,3.14158,-8.78573e-06
44.4,3.14158,-8.19431e-06
44.5,3.14158,-7.6216e-06
44.6,3.14158,-7.06744e-06
44.7,3.14158,-6.53164e-06
44.8,3.14158,-6.01402e-06
44.9,3.14158,-5.51436e-06
45,3.14158,-5.03245e-06
45.1,3.14158,-4.56803e-06
45.2,3.14158,-4.12087e-06
45.3,3.14158,-3.6907e-06
45.4,3.14158,-3.27726e-06
45.5,3.14158,-2.88026e-06
45.6,3.14158,-2.49942e-06
45.7,3.14158,-2.13444e-06
45.8,3.14157,-1.78501e-06
45.9,3.14157,-1.45084e-06
46,3.14157,-1.1316e-06
46.1,3.14157,-8.26978e-07
46.2,3.14157,-5.36653e-07
46.3,3.14157,-2.60297e-07
46.4,3.14157,2.41639e-09
46.5,3.14157,2.51819e-07
46.6,3.14157,4.88241e-07
46.7,3.14157,7.12017e-07
46.8,3.14157,9.2348e-07
46.9,3.14157,1.12296e-06
47,3.14157,1.3108e-06
47.1,3.14158,1.48732e-06
47.2,3.14158,1.65286e-06
47.3,3.14158,1.80774e-06
47.4,3.14158,1.9523e-06
47.5,3.14158,2.08685e-06
47.6,3.14158,2.21172e-06
47.7,3.14158,2.32723e-06
47.8,3.14158,2.43369e-06
47.9,3.14158,2.53142e-06
48,3.14158,2.62072e-06
48.1,3.14158,2.70191e-06
48.2,3.14158,2.77526e-06
48.3,3.14158,2.8411e-06
48.4,3.14158,2.89969e-06
48.5,3.14158,2.95134e-06
48.6,3.14158,2.99632e-06
48.7,3.14158,3.03491e-06
48.8,3.14158,3.06737e-06
48.9,3.14158,3.09398e-06
49,3.14158,3.115e-06
49.1,3.14158,3.13067e-06
49.2,3.14158,3.14125e-06
49.3,3.14158,3.14698e-06
49.4,3.14158,3.14811e-06
49.5,3.14158,3.14485e-06
49.6,3.14158,3.13744e-06
49.7,3.14158,3.1261e-06
49.8,3.14158,3.11104e-06
49.9,3.14158,3.09247e-06
50,3.14158,3.07059e-06
50.1,3.14158,3.04561e-06
50.2,3.14158,3.01772e-06
50.3,3.14158,2.98709e-06
50.4,3.14158,2.95391e-06
50.5,3.14158,2.91836e-06
50.6,3.14158,2.8806e-06
50.7,3.14159,2.8408e-06
50.8,3.14159,2.79912e-06
50.9,3.14159,2.75571e-06
51,3.14159,2.71071e-06
51.1,3.14159,2.66426e-06
51.2,3.14159,2.61652e-06
51.3,3.14159,2.5676e-06
51.4,3.14159,2.51763e-06
51.5,3.14159,2.46674e-06
51.6,3.14159,2.41504e-06
51.7,3.14159,2.36264e-06
51.8,3.14159,2.30965e-06
51.9,3.14159,2.25618e-06
52,3.14159,2.20231e-06
52.1,3.14159,2.14815e-06
52.2,3.14159,2.09379e-06
52.3,3.14159,2.03931e-06
52.4,3.14159,1.98478e-06
52.5,3.14159,1.93029e-06
52.6,3.14159,1.87592e-06
52.7,3.14159,1.82172e-06
52.8,3.14159,1.76776e-06
52.9,3.14159,1.71411e-06
53,3.14159,1.66083e-06
53.1,3.14159,1.60797e-06
53.2,3.14159,1.55557e-06
53.3,3.14159,1.50369e-06
53.4,3.14159,1.45238e-06
53.5,3.14159,1.40167e-06
53.6,3.14159,1.35161e-06
53.7,3.14159,1.30223e-06
53.8,3.14159,1.25356e-06
53.9,3.14159,1.20563e-06
54,3.14159,1.15848e-06
54.1,3.14159,1.11213e-06
54.2,3.14159,1.06659e-06
54.3,3.14159,1.0219e-06
54.4,3.14159,9.78072e-07
54.5,3.14159,9.3512e-07
54.6,3.14159,8.93059e-07
54.7,3.14159,8.51903e-07
54.8,3.14159,8.11662e-07
54.9,3.14159,7.72345e-07
55,3.14159,7.33959e-07
55.1,3.14159,6.9651e-07
55.2,3.14159,6.60002e-07
55.3,3.14159,6.24438e-07
55.4,3.14159,5.89817e-07
55.5,3.14159,5.5614e-07
55.6,3.14159,5.23406e-07
55.7,3.14159,4.91611e-07
55.8,3.14159,4.60752e-07
55.9,3.14159,4.30824e-07
56,3.14159,4.0182e-07
56.1,3.14159,3.73734e-07
56.2,3.14159,3.46557e-07
56.3,3.14159,3.20281e-07
56.4,3.14159,2.94897e-07
56.5,3.14159,2.70394e-07
56.6,3.14159,2.4676e-07
56.7,3.14159,2.23985e-07
56.8,3.14159,2.02056e-07
56.9,3.14159,1.80961e-07
57,3.14159,1.60685e-07
57.1,3.14159,1.41217e-07
57.2,3.14159,1.2254e-07
57.3,3.14159,1.04641e-07
57.4,3.14159,8.75058e-08
57.5,3.14159,7.11181e-08
57.6,3.14159,5.54628e-08
57.7,3.14159,4.05245e-08
57.8,3.14159,2.62872e-08
57.9,3.14159,1.2735e-08
58,3.14159,-1.4813e-10
58.1,3.14159,-1.23785e-08
58.2,3.14159,-2.39723e-08
58.3,3.14159,-3.49459e-08
58.4,3.14159,-4.53156e-08
58.5,3.14159,-5.50978e-08
58.6,3.14159,-6.43089e-08
58.7,3.14159,-7.2965e-08
58.8,3.14159,-8.10825e-08
58.9,3.14159,-8.86775e-08
59,3.14159,-9.5766e-08
59.1,3.14159,-1.02364e-07
59.2,3.14159,-1.08487e-07
59.3,3.14159,-1.14151e-07
59.4,3.14159,-1.19372e-07
59.5,3.14159,-1.24164e-07
59.6,3.14159,-1.28543e-07
59.7,3.14159,-1.32523e-07
59.8,3.14159,-1.3612e-07
59.9,3.14159,-1.39348e-07
60,3.14159,-1.42221e-07
60.1,3.14159,-1.44753e-07
60.2,3.14159,-1.46959e-07
60.3,3.14159,-1.4885e-07
60.4,3.14159,-1.50442e-07
60.5,3.14159,-1.51746e-07
60.6,3.14159,-1.52776e-07
60.7,3.14159,-1.53544e-07
60.8,3.14159,-1.54063e-07
60.9,3.14159,-1.54343e-07
61,3.14159,-1.54398e-07
61.1,3.14159,-1.54238e-07
61.2,3.14159,-1.53874e-07
61.3,3.14159,-1.53317e-07
61.4,3.14159,-1.52578e-07
61.5,3.14159,-1.51667e-07
61.6,3.14159,-1.50594e-07
61.7,3.14159,-1.49368e-07
61.8,3.14159,-1.48e-07
61.9,3.14159,-1.46497e-07
62,3.14159,-1.4487e-07
62.1,3.14159,-1.43126e-07
62.2,3.14159,-1.41274e-07
62.3,3.14159,-1.39322e-07
62.4,3.14159,-1.37277e-07
62.5,3.14159,-1.35148e-07
62.6,3.14159,-1.3294e-07
62.7,3.14159,-1.30663e-07
62.8,3.14159,-1.28321e-07
62.9,3.14159,-1.25921e-07
63,3.14159,-1.23471e-07
63.1,3.14159,-1.20974e-07
63.2,3.14159,-1.18439e-07
63.3,3.14159,-1.15869e-07
63.4,3.14159,-1.1327e-07
63.5,3.14159,-1.10647e-07
63.6,3.14159,-1.08006e-07
63.7,3.14159,-1.05349e-07
63.8,3.14159,-1.02683e-07
63.9,3.14159,-1.00011e-07
64,3.14159,-9.73367e-08
64.1,3.14159,-9.46643e-08
64.2,3.14159,-9.19974e-08
64.3,3.14159,-8.93393e-08
64.4,3.14159,-8.66931e-08
64.5,3.14159,-8.4062e-08
64.6,3.14159,-8.14488e-08
64.7,3.14159,-7.88561e-08
64.8,3.14159,-7.62865e-08
64.9,3.14159,-7.37423e-08
65,3.14159,-7.12257e-08
65.1,3.14159,-6.87389e-08
65.2,3.14159,-6.62836e-08
65.3,3.14159,-6.38617e-08
65.4,3.14159,-6.14748e-08
65.5,3.14159,-5.91244e-08
65.6,3.14159,-5.6812e-08
65.7,3.14159,-5.45386e-08
65.8,3.14159,-5.23055e-08
65.9,3.14159,-5.01138e-08
66,3.14159,-4.79643e-08
66.1,3.14159,-4.58578e-08
66.2,3.14159,-4.3795e-08
66.3,3.14159,-4.17766e-08
66.4,3.14159,-3.98031e-08
66.5,3.14159,-3.78749e-08
66.6,3.14159,-3.59924e-08
66.7,3.14159,-3.41559e-08
66.8,3.14159,-3.23655e-08
66.9,3.14159,-3.06213e-08
67,3.14159,-2.89234e-08
67.1,3.14159,-2.72719e-08
67.2,3.14159,-2.56666e-08
67.3,3.14159,-2.41073e-08
67.4,3.14159,-2.25939e-08
67.5,3.14159,-2.11262e-08
67.6,3.14159,-1.97038e-08
67.7,3.14159,-1.83265e-08
67.8,3.14159,-1.69937e-08
67.9,3.14159,-1.57051e-08
68,3.14159,-1.44603e-08
68.1,3.14159,-1.32586e-08
68.2,3.14159,-1.20996e-08
68.3,3.14159,-1.09827e-08
68.4,3.14159,-9.9073e-09
68.5,3.14159,-8.87277e-09
68.6,3.14159,-7.87847e-09
68.7,3.14159,-6.92372e-09
68.8,3.14159,-6.00783e-09
68.9,3.14159,-5.13008e-09
69,3.14159,-4.28976e-09
69.1,3.14159,-3.48611e-09
69.2,3.14159,-2.71839e-09
69.3,3.14159,-1.98582e-09
69.4,3.14159,-1.28764e-09
69.5,3.14159,-6.23056e-10
69.6,3.14159,8.71759e-12
69.7,3.14159,6.08476e-10
69.8,3.14159,1.17702e-09
69.9,3.14159,1.71514e-09
70,3.14159,2.22366e-09
70.1,3.14159,2.70335e-09
70.2,3.14159,3.15504e-09
70.3,3.14159,3.57952e-09
70.4,3.14159,3.97758e-09
70.5,3.14159,4.35001e-09
70.6,3.14159,4.69761e-09
70.7,3.14159,5.02115e-09
70.8,3.14159,5.3214e-09
70.9,3.14159,5.59914e-09
71,3.14159,5.85512e-09
71.1,3.14159,6.0901e-09
71.2,3.14159,6.30481e-09
71.3,3.14159,6.49999e-09
71.4,3.14159,6.67636e-09
71.5,3.14159,6.83463e-09
71.6,3.14159,6.9755e-09
71.7,3.14159,7.09966e-09
71.8,3.14159,7.20777e-09
71.9,3.14159,7.30052e-09
72,3.14159,7.37855e-09
72.1,3.14159,7.44249e-09
72.2,3.14159,7.49297e-09
72.3,3.14159,7.53061e-09
72.4,3.14159,7.55601e-09
72.5,3.14159,7.56974e-09
72.6,3.14159,7.57239e-09
72.7,3.14159,7.5645e-09
72.8,3.14159,7.54663e-09
72.9,3.14159,7.51931e-09
73,3.14159,7.48304e-09
73.1,3.14159,7.43834e-09
73.2,3.14159,7.38569e-09
73.3,3.14159,7.32557e-09
73.4,3.14159,7.25843e-09
73.5,3.14159,7.18473e-09
73.6,3.14159,7.1049e-09
73.7,3.14159,7.01936e-09
73.8,3.14159,6.92851e-09
73.9,3.14159,6.83276e-09
74,3.14159,6.73247e-09
74.1,3.14159,6.62802e-09
74.2,3.14159,6.51977e-09
74.3,3.14159,6.40804e-09
74.4,3.14159,6.29318e-09
74.5,3.14159,6.17549e-09
74.6,3.14159,6.05529e-09
74.7,3.14159,5.93286e-09
74.8,3.14159,5.80849e-09
74.9,3.14159,5.68245e-09
75,3.14159,5.55499e-09
75.1,3.14159,5.42636e-09
75.2,3.14159,5.29679e-09
75.3,3.14159,5.16652e-09
75.4,3.14159,5.03575e-09
75.5,3.14159,4.90469e-09
75.6,3.14159,4.77354e-09
75.7,3.14159,4.64248e-09
75.8,3.14159,4.51168e-09
75.9,3.14159,4.38131e-09
76,3.14159,4.25153e-09
76.1,3.14159,4.12249e-09
76.2,3.14159,3.99433e-09
76.3,3.14159,3.86717e-09
76.4,3.14159,3.74115e-09
76.5,3.14159,3.61638e-09
76.6,3.14159,3.49295e-09
76.7,3.14159,3.37099e-09
76.8,3.14159,3.25058e-09
76.9,3.14159,3.1318e-09
77,3.14159,3.01474e-09
77.1,3.14159,2.89947e-09
77.2,3.14159,2.78606e-09
77.3,3.14159,2.67457e-09
77.4,3.14159,2.56505e-09
77.5,3.14159,2.45756e-09
77.6,3.14159,2.35215e-09
77.7,3.14159,2.24884e-09
77.8,3.14159,2.14768e-09
77.9,3.14159,2.04869e-09
78,3.14159,1.95191e-09
78.1,3.14159,1.85734e-09
78.2,3.14159,1.76502e-09
78.3,3.14159,1.67495e-09
78.4,3.14159,1.58715e-09
78.5,3.14159,1.50161e-09
78.6,3.14159,1.41835e-09
78.7,3.14159,1.33735e-09
78.8,3.14159,1.25863e-09
78.9,3.14159,1.18216e-09
79,3.14159,1.10794e-09
79.1,3.14159,1.03596e-09
79.2,3.14159,9.66207e-10
79.3,3.14159,8.98659e-10
79.4,3.14159,8.333e-10
79.5,3.14159,7.70106e-10
79.6,3.14159,7.09057e-10
79.7,3.14159,6.50127e-10
79.8,3.14159,5.93289e-10
79.9,3.14159,5.38516e-10
80,3.14159,4.85778e-10
80.1,3.14159,4.35045e-10
80.2,3.14159,3.86284e-10
80.3,3.14159,3.39464e-10
80.4,3.14159,2.94548e-10
80.5,3.14159,2.51504e-10
80.6,3.14159,2.10295e-10
80.7,3.14159,1.70884e-10
80.8,3.14159,1.33236e-10
80.9,3.14159,9.73112e-11
81,3.14159,6.3073e-11
81.1,3.14159,3.04825e-11
81.2,3.14159,-4.98886e-13
81.3,3.14159,-2.99102e-11
81.4,3.14159,-5.77906e-11
81.5,3.14159,-8.41793e-11
81.6,3.14159,-1.09116e-10
81.7,3.14159,-1.32639e-10
81.8,3.14159,-1.54789e-10
81.9,3.14159,-1.75604e-10
82,3.14159,-1.95124e-10
