t,alpha,omega
0,0,0
0.1,0.00217528,0.0431269
0.2,0.00855058,0.0840099
0.3,0.0189044,0.122707
0.4,0.0330209,0.159275
0.5,0.0506903,0.193772
0.6,0.0717081,0.226255
0.7,0.0958761,0.256782
0.8,0.123001,0.285411
0.9,0.152897,0.312197
1,0.185381,0.337198
1.1,0.220279,0.360469
1.2,0.257419,0.382067
1.3,0.296638,0.402046
1.4,0.337776,0.420461
1.5,0.38068,0.437366
1.6,0.425201,0.452814
1.7,0.471196,0.466858
1.8,0.518528,0.47955
1.9,0.567063,0.49094
2,0.616674,0.501079
2.1,0.667239,0.510017
2.2,0.718639,0.517802
2.3,0.770762,0.524481
2.4,0.8235,0.530102
2.5,0.876749,0.534711
2.6,0.93041,0.538352
2.7,0.984388,0.541069
2.8,1.03859,0.542906
2.9,1.09294,0.543904
3,1.14735,0.544106
3.1,1.20174,0.543549
3.2,1.25603,0.542275
3.3,1.31017,0.540321
3.4,1.36408,0.537724
3.5,1.41769,0.534521
3.6,1.47096,0.530745
3.7,1.52383,0.526433
3.8,1.57623,0.521616
3.9,1.62813,0.516327
4,1.67948,0.510596
4.1,1.73024,0.504456
4.2,1.78036,0.497933
4.3,1.82981,0.491058
4.4,1.87856,0.483856
4.5,1.92657,0.476355
4.6,1.97382,0.46858
4.7,2.02028,0.460556
4.8,2.06593,0.452306
4.9,2.11074,0.443852
5,2.15469,0.435218
5.1,2.19778,0.426423
5.2,2.23997,0.417488
5.3,2.28127,0.408433
5.4,2.32165,0.399276
5.5,2.36112,0.390034
5.6,2.39966,0.380725
5.7,2.43726,0.371365
5.8,2.47393,0.36197
5.9,2.50966,0.352553
6,2.54444,0.343129
6.1,2.57828,0.333711
6.2,2.61118,0.324313
6.3,2.64315,0.314945
6.4,2.67418,0.305619
6.5,2.70427,0.296347
6.6,2.73345,0.287137
6.7,2.7617,0.277999
6.8,2.78905,0.268942
6.9,2.81549,0.259975
7,2.84105,0.251106
7.1,2.86572,0.242341
7.2,2.88952,0.233687
7.3,2.91246,0.225151
7.4,2.93455,0.216738
7.5,2.95581,0.208453
7.6,2.97625,0.200302
7.7,2.99588,0.192289
7.8,3.01471,0.184418
7.9,3.03277,0.176693
8,3.05005,0.169116
8.1,3.06659,0.161691
8.2,3.0824,0.15442
8.3,3.09748,0.147305
8.4,3.11186,0.140348
8.5,3.12556,0.133551
8.6,3.13858,0.126915
8.7,3.15095,0.120441
8.8,3.16267,0.11413
8.9,3.17378,0.107982
9,3.18428,0.101996
9.1,3.19418,0.0961742
9.2,3.20352,0.090515
9.3,3.21229,0.0850183
9.4,3.22052,0.0796832
9.5,3.22823,0.074509
9.6,3.23543,0.0694946
9.7,3.24214,0.0646388
9.8,3.24836,0.0599402
9.9,3.25413,0.0553974
10,3.25945,0.0510086
10.1,3.26434,0.0467721
10.2,3.26881,0.042686
10.3,3.27288,0.0387482
10.4,3.27656,0.0349568
10.5,3.27988,0.0313094
10.6,3.28283,0.0278038
10.7,3.28544,0.0244376
10.8,3.28772,0.0212083
10.9,3.28969,0.0181135
11,3.29135,0.0151507
11.1,3.29272,0.0123171
11.2,3.29382,0.0096101
11.3,3.29465,0.00702706
11.4,3.29523,0.00456523
11.5,3.29556,0.00222183
11.6,3.29567,-5.90893e-06
11.7,3.29557,-0.00212079
11.8,3.29525,-0.00412563
11.9,3.29475,-0.00602325
12,3.29405,-0.00781648
12.1,3.29319,-0.00950813
12.2,3.29215,-0.011101
12.3,3.29097,-0.012598
12.4,3.28964,-0.0140019
12.5,3.28817,-0.0153154
12.6,3.28658,-0.0165413
12.7,3.28487,-0.0176825
12.8,3.28304,-0.0187415
12.9,3.28112,-0.0197212
13,3.2791,-0.0206242
13.1,3.277,-0.0214531
13.2,3.27481,-0.0222106
13.3,3.27256,-0.0228992
13.4,3.27024,-0.0235215
13.5,3.26786,-0.0240799
13.6,3.26542,-0.0245771
13.7,3.26294,-0.0250153
13.8,3.26042,-0.0253969
13.9,3.25786,-0.0257244
14,3.25528,-0.0259999
14.1,3.25267,-0.0262258
14.2,3.25003,-0.0264043
14.3,3.24739,-0.0265374
14.4,3.24473,-0.0266274
14.5,3.24206,-0.0266763
14.6,3.23939,-0.026686
14.7,3.23673,-0.0266586
14.8,3.23406,-0.0265961
14.9,3.23141,-0.0265001
15,3.22876,-0.0263727
15.1,3.22614,-0.0262155
15.2,3.22352,-0.0260302
15.3,3.22093,-0.0258186
15.4,3.21836,-0.0255823
15.5,3.21581,-0.0253229
15.6,3.2133,-0.0250418
15.7,3.21081,-0.0247405
15.8,3.20835,-0.0244206
15.9,3.20592,-0.0240833
16,3.20353,-0.0237301
16.1,3.20118,-0.0233622
16.2,3.19886,-0.0229808
16.3,3.19658,-0.0225872
16.4,3.19434,-0.0221825
16.5,3.19215,-0.0217679
16.6,3.18999,-0.0213444
16.7,3.18788,-0.020913
16.8,3.18581,-0.0204748
16.9,3.18378,-0.0200307
17,3.1818,-0.0195815
17.1,3.17987,-0.0191283
17.2,3.17798,-0.0186717
17.3,3.17613,-0.0182126
17.4,3.17433,-0.0177518
17.5,3.17258,-0.0172899
17.6,3.17088,-0.0168277
17.7,3.16922,-0.0163659
17.8,3.1676,-0.0159049
17.9,3.16604,-0.0154455
18,3.16451,-0.0149881
18.1,3.16304,-0.0145333
18.2,3.16161,-0.0140816
18.3,3.16022,-0.0136334
18.4,3.15888,-0.0131893
18.5,3.15758,-0.0127495
18.6,3.15633,-0.0123145
18.7,3.15512,-0.0118846
18.8,3.15395,-0.0114602
18.9,3.15283,-0.0110415
19,3.15174,-0.0106289
19.1,3.1507,-0.0102226
19.2,3.1497,-0.00982289
19.3,3.14874,-0.00942991
19.4,3.14781,-0.00904388
19.5,3.14693,-0.00866499
19.6,3.14608,-0.0082934
19.7,3.14527,-0.00792925
19.8,3.14449,-0.00757265
19.9,3.14375,-0.00722373
20,3.14305,-0.00688256
20.1,3.14238,-0.00654922
20.2,3.14174,-0.00622378
20.3,3.14113,-0.00590628
20.4,3.14056,-0.00559675
20.5,3.14001,-0.00529522
20.6,3.1395,-0.00500169
20.7,3.13901,-0.00471617
20.8,3.13855,-0.00443863
20.9,3.13812,-0.00416906
21,3.13772,-0.00390742
21.1,3.13734,-0.00365367
21.2,3.13699,-0.00340775
21.3,3.13666,-0.00316962
21.4,3.13636,-0.00293919
21.5,3.13607,-0.00271641
21.6,3.13581,-0.00250118
21.7,3.13557,-0.00229341
21.8,3.13535,-0.00209303
21.9,3.13515,-0.00189992
22,3.13497,-0.00171398
22.1,3.13481,-0.00153511
22.2,3.13467,-0.0013632
22.3,3.13454,-0.00119812
22.4,3.13443,-0.00103975
22.5,3.13433,-0.000887987
22.6,3.13425,-0.000742688
22.7,3.13418,-0.000603729
22.8,3.13413,-0.000470981
22.9,3.13409,-0.000344311
23,3.13406,-0.000223584
23.1,3.13404,-0.000108666
23.2,3.13404,5.79574e-07
23.3,3.13404,0.000104291
23.4,3.13406,0.000202605
23.5,3.13408,0.000295661
23.6,3.13412,0.000383597
23.7,3.13416,0.000466552
23.8,3.13421,0.000544664
23.9,3.13427,0.000618072
24,3.13433,0.000686913
24.1,3.1344,0.000751323
24.2,3.13448,0.000811439
24.3,3.13457,0.000867396
24.4,3.13466,0.000919327
24.5,3.13475,0.000967366
24.6,3.13485,0.00101164
24.7,3.13495,0.00105229
24.8,3.13506,0.00108943
24.9,3.13517,0.00112319
25,3.13528,0.00115371
25.1,3.1354,0.00118109
25.2,3.13552,0.00120546
25.3,3.13564,0.00122695
25.4,3.13576,0.00124566
25.5,3.13589,0.00126171
25.6,3.13602,0.00127522
25.7,3.13615,0.00128629
25.8,3.13627,0.00129504
25.9,3.1364,0.00130156
26,3.13653,0.00130597
26.1,3.13667,0.00130836
26.2,3.1368,0.00130883
26.3,3.13693,0.00130749
26.4,3.13706,0.00130441
26.5,3.13719,0.0012997
26.6,3.13732,0.00129345
26.7,3.13745,0.00128573
26.8,3.13757,0.00127664
26.9,3.1377,0.00126626
27,3.13783,0.00125467
27.1,3.13795,0.00124194
27.2,3.13808,0.00122815
27.3,3.1382,0.00121338
27.4,3.13832,0.00119768
27.5,3.13844,0.00118114
27.6,3.13856,0.00116381
27.7,3.13867,0.00114576
27.8,3.13878,0.00112706
27.9,3.1389,0.00110775
28,3.13901,0.0010879
28.1,3.13911,0.00106757
28.2,3.13922,0.00104679
28.3,3.13932,0.00102564
28.4,3.13942,0.00100414
28.5,3.13952,0.000982359
28.6,3.13962,0.00096033
28.7,3.13972,0.000938099
28.8,3.13981,0.000915706
28.9,3.1399,0.00089319
29,3.13999,0.000870588
29.1,3.14007,0.000847936
29.2,3.14016,0.000825267
29.3,3.14024,0.000802613
29.4,3.14032,0.000780006
29.5,3.14039,0.000757472
29.6,3.14047,0.00073504
29.7,3.14054,0.000712735
29.8,3.14061,0.000690581
29.9,3.14068,0.000668602
30,3.14074,0.000646818
30.1,3.14081,0.000625249
30.2,3.14087,0.000603915
30.3,3.14093,0.000582832
30.4,3.14099,0.000562017
30.5,3.14104,0.000541485
30.6,3.14109,0.000521249
30.7,3.14115,0.000501323
30.8,3.1412,0.000481718
30.9,3.14124,0.000462444
31,3.14129,0.000443512
31.1,3.14133,0.000424931
31.2,3.14137,0.000406707
31.3,3.14141,0.000388847
31.4,3.14145,0.000371359
31.5,3.14149,0.000354247
31.6,3.14152,0.000337515
31.7,3.14155,0.000321167
31.8,3.14159,0.000305207
31.9,3.14162,0.000289636
32,3.14164,0.000274456
32.1,3.14167,0.000259668
32.2,3.1417,0.000245273
32.3,3.14172,0.00023127
32.4,3.14174,0.000217659
32.5,3.14176,0.000204439
32.6,3.14178,0.000191608
32.7,3.1418,0.000179163
32.8,3.14182,0.000167103
32.9,3.14183,0.000155425
33,3.14185,0.000144125
33.1,3.14186,0.000133199
33.2,3.14188,0.000122644
33.3,3.14189,0.000112455
33.4,3.1419,0.000102628
33.5,3.14191,9.31575e-05
33.6,3.14192,8.40392e-05
33.7,3.14193,7.52673e-05
33.8,3.14193,6.68364e-05
33.9,3.14194,5.87409e-05
34,3.14194,5.09748e-05
34.1,3.14195,4.35321e-05
34.2,3.14195,3.64067e-05
34.3,3.14196,2.95922e-05
34.4,3.14196,2.30823e-05
34.5,3.14196,1.68704e-05
34.6,3.14196,1.09501e-05
34.7,3.14196,5.31466e-06
34.8,3.14196,-4.26354e-08
34.9,3.14196,-5.12849e-06
35,3.14196,-9.94967e-06
35.1,3.14196,-1.4513e-05
35.2,3.14196,-1.88252e-05
35.3,3.14196,-2.28931e-05
35.4,3.14195,-2.67236e-05
35.5,3.14195,-3.03233e-05
35.6,3.14195,-3.3699e-05
35.7,3.14195,-3.68575e-05
35.8,3.14194,-3.98053e-05
35.9,3.14194,-4.25492e-05
36,3.14193,-4.50957e-05
36.1,3.14193,-4.74513e-05
36.2,3.14192,-4.96224e-05
36.3,3.14192,-5.16154e-05
36.4,3.14191,-5.34365e-05
36.5,3.14191,-5.50921e-05
36.6,3.1419,-5.65882e-05
36.7,3.1419,-5.79307e-05
36.8,3.14189,-5.91258e-05
36.9,3.14188,-6.01791e-05
37,3.14188,-6.10964e-05
37.1,3.14187,-6.18834e-05
37.2,3.14187,-6.25456e-05
37.3,3.14186,-6.30883e-05
37.4,3.14185,-6.3517e-05
37.5,3.14185,-6.38367e-05
37.6,3.14184,-6.40526e-05
37.7,3.14183,-6.41696e-05
37.8,3.14183,-6.41926e-05
37.9,3.14182,-6.41263e-05
38,3.14182,-6.39753e-05
38.1,3.14181,-6.37441e-05
38.2,3.1418,-6.34371e-05
38.3,3.1418,-6.30586e-05
38.4,3.14179,-6.26126e-05
38.5,3.14178,-6.21033e-05
38.6,3.14178,-6.15346e-05
38.7,3.14177,-6.09101e-05
38.8,3.14177,-6.02337e-05
38.9,3.14176,-5.95088e-05
39,3.14175,-5.8739e-05
39.1,3.14175,-5.79275e-05
39.2,3.14174,-5.70776e-05
39.3,3.14174,-5.61923e-05
39.4,3.14173,-5.52748e-05
39.5,3.14172,-5.43279e-05
39.6,3.14172,-5.33543e-05
39.7,3.14171,-5.23568e-05
39.8,3.14171,-5.13379e-05
39.9,3.1417,-5.03002e-05
40,3.1417,-4.9246e-05
40.1,3.14169,-4.81776e-05
40.2,3.14169,-4.70971e-05
40.3,3.14168,-4.60067e-05
40.4,3.14168,-4.49084e-05
40.5,3.14168,-4.38041e-05
40.6,3.14167,-4.26956e-05
40.7,3.14167,-4.15846e-05
40.8,3.14166,-4.04728e-05
40.9,3.14166,-3.93617e-05
41,3.14166,-3.82529e-05
41.1,3.14165,-3.71477e-05
41.2,3.14165,-3.60476e-05
41.3,3.14164,-3.49536e-05
41.4,3.14164,-3.38671e-05
41.5,3.14164,-3.27891e-05
41.6,3.14163,-3.17207e-05
41.7,3.14163,-3.06629e-05
41.8,3.14163,-2.96166e-05
41.9,3.14163,-2.85826e-05
42,3.14162,-2.75618e-05
42.1,3.14162,-2.65548e-05
42.2,3.14162,-2.55623e-05
42.3,3.14161,-2.45851e-05
42.4,3.14161,-2.36236e-05
42.5,3.14161,-2.26784e-05
42.6,3.14161,-2.17499e-05
42.7,3.14161,-2.08386e-05
42.8,3.1416,-1.99448e-05
42.9,3.1416,-1.90689e-05
43,3.1416,-1.82113e-05
43.1,3.1416,-1.7372e-05
43.2,3.1416,-1.65514e-05
43.3,3.14159,-1.57497e-05
43.4,3.14159,-1.4967e-05
43.5,3.14159,-1.42033e-05
43.6,3.14159,-1.34589e-05
43.7,3.14159,-1.27337e-05
43.8,3.14159,-1.20277e-05
43.9,3.14159,-1.1341e-05
44,3.14159,-1.06735e-05
44.1,3.14158,-1.00251e-05
44.2,3.14158,-9.39584e-06
44.3,3.14158,-8.78555e-06
44.4,3.14158,-8.19412e-06
44.5,3.14158,-7.62139e-06
44.6,3.14158,-7.06721e-06
44.7,3.14158,-6.5314e-06
44.8,3.14158,-6.01376e-06
44.9,3.14158,-5.51409e-06
45,3.14158,-5.03216e-06
45.1,3.14158,-4.56774e-06
45.2,3.14158,-4.12057e-06
45.3,3.14158,-3.69039e-06
45.4,3.14158,-3.27694e-06
45.5,3.14158,-2.87993e-06
45.6,3.14158,-2.49908e-06
45.7,3.14158,-2.13409e-06
45.8,3.14157,-1.78466e-06
45.9,3.14157,-1.45048e-06
46,3.14157,-1.13124e-06
46.1,3.14157,-8.26613e-07
46.2,3.14157,-5.36285e-07
46.3,3.14157,-2.59927e-07
46.4,3.14157,2.78791e-09
46.5,3.14157,2.52191e-07
46.6,3.14157,4.88615e-07
46.7,3.14157,7.12391e-07
46.8,3.14157,9.23854e-07
46.9,3.14157,1.12334e-06
47,3.14157,1.31117e-06
47.1,3.14158,1.48769e-06
47.2,3.14158,1.65323e-06
47.3,3.14158,1.80811e-06
47.4,3.14158,1.95266e-06
47.5,3.14158,2.08721e-06
47.6,3.14158,2.21208e-06
47.7,3.14158,2.32758e-06
47.8,3.14158,2.43404e-06
47.9,3.14158,2.53177e-06
48,3.14158,2.62107e-06
48.1,3.14158,2.70224e-06
48.2,3.14158,2.7756e-06
48.3,3.14158,2.84142e-06
48.4,3.14158,2.90001e-06
48.5,3.14158,2.95166e-06
48.6,3.14158,2.99663e-06
48.7,3.14158,3.03521e-06
48.8,3.14158,3.06767e-06
48.9,3.14158,3.09428e-06
49,3.14158,3.11528e-06
49.1,3.14158,3.13095e-06
49.2,3.14158,3.14153e-06
49.3,3.14158,3.14725e-06
49.4,3.14158,3.14837e-06
49.5,3.14158,3.1451e-06
49.6,3.14158,3.13769e-06
49.7,3.14158,3.12634e-06
49.8,3.14158,3.11127e-06
49.9,3.14158,3.0927e-06
50,3.14158,3.07082e-06
50.1,3.14158,3.04583e-06
50.2,3.14158,3.01793e-06
50.3,3.14158,2.98729e-06
50.4,3.14158,2.95411e-06
50.5,3.14158,2.91855e-06
50.6,3.14158,2.88079e-06
50.7,3.14159,2.84098e-06
50.8,3.14159,2.79929e-06
50.9,3.14159,2.75587e-06
51,3.14159,2.71087e-06
51.1,3.14159,2.66442e-06
51.2,3.14159,2.61667e-06
51.3,3.14159,2.56774e-06
51.4,3.14159,2.51777e-06
51.5,3.14159,2.46687e-06
51.6,3.14159,2.41516e-06
51.7,3.14159,2.36276e-06
51.8,3.14159,2.30977e-06
51.9,3.14159,2.25629e-06
52,3.14159,2.20242e-06
52.1,3.14159,2.14826e-06
52.2,3.14159,2.09389e-06
52.3,3.14159,2.0394e-06
52.4,3.14159,1.98487e-06
52.5,3.14159,1.93038e-06
52.6,3.14159,1.87599e-06
52.7,3.14159,1.82179e-06
52.8,3.14159,1.76783e-06
52.9,3.14159,1.71418e-06
53,3.14159,1.66089e-06
53.1,3.14159,1.60802e-06
53.2,3.14159,1.55562e-06
53.3,3.14159,1.50374e-06
53.4,3.14159,1.45243e-06
53.5,3.14159,1.40172e-06
53.6,3.14159,1.35165e-06
53.7,3.14159,1.30226e-06
53.8,3.14159,1.25359e-06
53.9,3.14159,1.20566e-06
54,3.14159,1.15851e-06
54.1,3.14159,1.11215e-06
54.2,3.14159,1.06662e-06
54.3,3.14159,1.02192e-06
54.4,3.14159,9.78089e-07
54.5,3.14159,9.35134e-07
54.6,3.14159,8.93071e-07
54.7,3.14159,8.51912e-07
54.8,3.14159,8.11669e-07
54.9,3.14159,7.7235e-07
55,3.14159,7.33963e-07
55.1,3.14159,6.96512e-07
55.2,3.14159,6.60002e-07
55.3,3.14159,6.24435e-07
55.4,3.14159,5.89813e-07
55.5,3.14159,5.56135e-07
55.6,3.14159,5.23399e-07
55.7,3.14159,4.91603e-07
55.8,3.14159,4.60743e-07
55.9,3.14159,4.30813e-07
56,3.14159,4.01808e-07
56.1,3.14159,3.73721e-07
56.2,3.14159,3.46543e-07
56.3,3.14159,3.20267e-07
56.4,3.14159,2.94881e-07
56.5,3.14159,2.70377e-07
56.6,3.14159,2.46743e-07
56.7,3.14159,2.23967e-07
56.8,3.14159,2.02037e-07
56.9,3.14159,1.80941e-07
57,3.14159,1.60666e-07
57.1,3.14159,1.41196e-07
57.2,3.14159,1.22519e-07
57.3,3.14159,1.0462e-07
57.4,3.14159,8.74843e-08
57.5,3.14159,7.10962e-08
57.6,3.14159,5.54407e-08
57.7,3.14159,4.05021e-08
57.8,3.14159,2.62647e-08
57.9,3.14159,1.27124e-08
58,3.14159,-1.70907e-10
58.1,3.14159,-1.24013e-08
58.2,3.14159,-2.39952e-08
58.3,3.14159,-3.49688e-08
58.4,3.14159,-4.53385e-08
58.5,3.14159,-5.51207e-08
58.6,3.14159,-6.43316e-08
58.7,3.14159,-7.29877e-08
58.8,3.14159,-8.11051e-08
58.9,3.14159,-8.86999e-08
59,3.14159,-9.57882e-08
59.1,3.14159,-1.02386e-07
59.2,3.14159,-1.08509e-07
59.3,3.14159,-1.14173e-07
59.4,3.14159,-1.19393e-07
59.5,3.14159,-1.24185e-07
59.6,3.14159,-1.28563e-07
59.7,3.14159,-1.32544e-07
59.8,3.14159,-1.3614e-07
59.9,3.14159,-1.39368e-07
60,3.14159,-1.42241e-07
60.1,3.14159,-1.44773e-07
60.2,3.14159,-1.46977e-07
60.3,3.14159,-1.48869e-07
60.4,3.14159,-1.5046e-07
60.5,3.14159,-1.51764e-07
60.6,3.14159,-1.52794e-07
60.7,3.14159,-1.53561e-07
60.8,3.14159,-1.54079e-07
60.9,3.14159,-1.5436e-07
61,3.14159,-1.54414e-07
61.1,3.14159,-1.54253e-07
61.2,3.14159,-1.53889e-07
61.3,3.14159,-1.53332e-07
61.4,3.14159,-1.52592e-07
61.5,3.14159,-1.51681e-07
61.6,3.14159,-1.50607e-07
61.7,3.14159,-1.49381e-07
61.8,3.14159,-1.48012e-07
61.9,3.14159,-1.4651e-07
62,3.14159,-1.44882e-07
62.1,3.14159,-1.43138e-07
62.2,3.14159,-1.41285e-07
62.3,3.14159,-1.39333e-07
62.4,3.14159,-1.37288e-07
62.5,3.14159,-1.35158e-07
62.6,3.14159,-1.3295e-07
62.7,3.14159,-1.30672e-07
62.8,3.14159,-1.2833e-07
62.9,3.14159,-1.2593e-07
63,3.14159,-1.23479e-07
63.1,3.14159,-1.20982e-07
63.2,3.14159,-1.18446e-07
63.3,3.14159,-1.15876e-07
63.4,3.14159,-1.13277e-07
63.5,3.14159,-1.10654e-07
63.6,3.14159,-1.08012e-07
63.7,3.14159,-1.05355e-07
63.8,3.14159,-1.02689e-07
63.9,3.14159,-1.00016e-07
64,3.14159,-9.73419e-08
64.1,3.14159,-9.46693e-08
64.2,3.14159,-9.20021e-08
64.3,3.14159,-8.93438e-08
64.4,3.14159,-8.66974e-08
64.5,3.14159,-8.4066e-08
64.6,3.14159,-8.14525e-08
64.7,3.14159,-7.88596e-08
64.8,3.14159,-7.62897e-08
64.9,3.14159,-7.37453e-08
65,3.14159,-7.12285e-08
65.1,3.14159,-6.87415e-08
65.2,3.14159,-6.6286e-08
65.3,3.14159,-6.38639e-08
65.4,3.14159,-6.14768e-08
65.5,3.14159,-5.91263e-08
65.6,3.14159,-5.68136e-08
65.7,3.14159,-5.45401e-08
65.8,3.14159,-5.23069e-08
65.9,3.14159,-5.0115e-08
66,3.14159,-4.79653e-08
66.1,3.14159,-4.58586e-08
66.2,3.14159,-4.37957e-08
66.3,3.14159,-4.17772e-08
66.4,3.14159,-3.98036e-08
66.5,3.14159,-3.78753e-08
66.6,3.14159,-3.59927e-08
66.7,3.14159,-3.4156e-08
66.8,3.14159,-3.23655e-08
66.9,3.14159,-3.06212e-08
67,3.14159,-2.89232e-08
67.1,3.14159,-2.72716e-08
67.2,3.14159,-2.56662e-08
67.3,3.14159,-2.41069e-08
67.4,3.14159,-2.25934e-08
67.5,3.14159,-2.11256e-08
67.6,3.14159,-1.97032e-08
67.7,3.14159,-1.83257e-08
67.8,3.14159,-1.69929e-08
67.9,3.14159,-1.57043e-08
68,3.14159,-1.44593e-08
68.1,3.14159,-1.32576e-08
68.2,3.14159,-1.20986e-08
68.3,3.14159,-1.09816e-08
68.4,3.14159,-9.9062e-09
68.5,3.14159,-8.87164e-09
68.6,3.14159,-7.87731e-09
68.7,3.14159,-6.92253e-09
68.8,3.14159,-6.00661e-09
68.9,3.14159,-5.12884e-09
69,3.14159,-4.28849e-09
69.1,3.14159,-3.48483e-09
69.2,3.14159,-2.71709e-09
69.3,3.14159,-1.98451e-09
69.4,3.14159,-1.28631e-09
69.5,3.14159,-6.21723e-10
69.6,3.14159,1.00579e-11
69.7,3.14159,6.09821e-10
69.8,3.14159,1.17837e-09
69.9,3.14159,1.71649e-09
70,3.14159,2.225e-09
70.1,3.14159,2.7047e-09
70.2,3.14159,3.15638e-09
70.3,3.14159,3.58085e-09
70.4,3.14159,3.9789e-09
70.5,3.14159,4.35133e-09
70.6,3.14159,4.69891e-09
70.7,3.14159,5.02244e-09
70.8,3.14159,5.32268e-09
70.9,3.14159,5.60041e-09
71,3.14159,5.85638e-09
71.1,3.14159,6.09134e-09
71.2,3.14159,6.30604e-09
71.3,3.14159,6.5012e-09
71.4,3.14159,6.67755e-09
71.5,3.14159,6.8358e-09
71.6,3.14159,6.97665e-09
71.7,3.14159,7.10079e-09
71.8,3.14159,7.20889e-09
71.9,3.14159,7.30161e-09
72,3.14159,7.37961e-09
72.1,3.14159,7.44354e-09
72.2,3.14159,7.494e-09
72.3,3.14159,7.53162e-09
72.4,3.14159,7.55699e-09
72.5,3.14159,7.5707e-09
72.6,3.14159,7.57332e-09
72.7,3.14159,7.56542e-09
72.8,3.14159,7.54752e-09
72.9,3.14159,7.52017e-09
73,3.14159,7.48388e-09
73.1,3.14159,7.43916e-09
73.2,3.14159,7.38649e-09
73.3,3.14159,7.32634e-09
73.4,3.14159,7.25918e-09
73.5,3.14159,7.18546e-09
73.6,3.14159,7.10561e-09
73.7,3.14159,7.02004e-09
73.8,3.14159,6.92917e-09
73.9,3.14159,6.8334e-09
74,3.14159,6.73309e-09
74.1,3.14159,6.62862e-09
74.2,3.14159,6.52034e-09
74.3,3.14159,6.40859e-09
74.4,3.14159,6.29371e-09
74.5,3.14159,6.176e-09
74.6,3.14159,6.05578e-09
74.7,3.14159,5.93334e-09
74.8,3.14159,5.80895e-09
74.9,3.14159,5.68288e-09
75,3.14159,5.5554e-09
75.1,3.14159,5.42675e-09
75.2,3.14159,5.29717e-09
75.3,3.14159,5.16688e-09
75.4,3.14159,5.03609e-09
75.5,3.14159,4.90502e-09
75.6,3.14159,4.77385e-09
75.7,3.14159,4.64277e-09
75.8,3.14159,4.51195e-09
75.9,3.14159,4.38157e-09
76,3.14159,4.25178e-09
76.1,3.14159,4.12273e-09
76.2,3.14159,3.99455e-09
76.3,3.14159,3.86738e-09
76.4,3.14159,3.74134e-09
76.5,3.14159,3.61655e-09
76.6,3.14159,3.49312e-09
76.7,3.14159,3.37114e-09
76.8,3.14159,3.25072e-09
76.9,3.14159,3.13193e-09
77,3.14159,3.01486e-09
77.1,3.14159,2.89958e-09
77.2,3.14159,2.78616e-09
77.3,3.14159,2.67466e-09
77.4,3.14159,2.56513e-09
77.5,3.14159,2.45763e-09
77.6,3.14159,2.35221e-09
77.7,3.14159,2.24889e-09
77.8,3.14159,2.14772e-09
77.9,3.14159,2.04873e-09
78,3.14159,1.95193e-09
78.1,3.14159,1.85737e-09
78.2,3.14159,1.76504e-09
78.3,3.14159,1.67496e-09
78.4,3.14159,1.58715e-09
78.5,3.14159,1.50161e-09
78.6,3.14159,1.41834e-09
78.7,3.14159,1.33734e-09
78.8,3.14159,1.2586e-09
78.9,3.14159,1.18213e-09
79,3.14159,1.10791e-09
79.1,3.14159,1.03593e-09
79.2,3.14159,9.66169e-10
79.3,3.14159,8.98617e-10
79.4,3.14159,8.33254e-10
79.5,3.14159,7.70057e-10
79.6,3.14159,7.09005e-10
79.7,3.14159,6.50072e-10
79.8,3.14159,5.93231e-10
79.9,3.14159,5.38456e-10
80,3.14159,4.85716e-10
80.1,3.14159,4.3498e-10
80.2,3.14159,3.86218e-10
80.3,3.14159,3.39395e-10
80.4,3.14159,2.94478e-10
80.5,3.14159,2.51433e-10
80.6,3.14159,2.10222e-10
80.7,3.14159,1.70811e-10
80.8,3.14159,1.33161e-10
80.9,3.14159,9.72361e-11
81,3.14159,6.29972e-11
81.1,3.14159,3.04062e-11
81.2,3.14159,-5.75587e-13
81.3,3.14159,-2.99872e-11
81.4,3.14159,-5.78677e-11
81.5,3.14159,-8.42565e-11
81.6,3.14159,-1.09193e-10
81.7,3.14159,-1.32716e-10
81.8,3.14159,-1.54866e-10
81.9,3.14159,-1.7568e-10
